; SpeX prism spectrum of 1541+5425 obtained 2003-05-21 by Adam J. Burgasser
; Spectrum in F_lambda normalized at 1.25-1.35 um
; Contact Dr. Burgasser for use or reproduction of this spectrum
; Wavelength (um)    Flux (normalized F_lambda)    S/N
; -------------------------------------------------------------------------
0.657746	0.233639	3.81832
0.659931	0.332552	1.96967
0.662108	0.0359463	0.378630
0.664278	0.157005	1.39996
0.666443	0.162963	1.80659
0.668602	0.0953957	1.25121
0.670757	0.148947	0.600863
0.672909	0.0942129	0.607709
0.675058	0.212662	1.82894
0.677206	-0.00632604	0.00000
0.679353	0.113535	1.08600
0.681500	0.298789	1.52913
0.683648	-0.0212546	0.00000
0.685796	0.253668	2.54614
0.687948	-0.127003	0.00000
0.690101	0.170057	3.74367
0.692259	0.163866	2.08282
0.694420	0.131572	0.802149
0.696587	0.0701550	1.20791
0.698759	0.200574	4.94524
0.700937	0.158976	1.41854
0.703122	0.266713	4.05808
0.705314	0.116793	2.81452
0.707513	0.239489	7.71549
0.709722	0.117340	5.22728
0.711939	0.0408689	0.711326
0.714165	0.0193963	0.261060
0.716402	0.0601164	0.578425
0.718649	0.172892	3.11822
0.720906	0.0532994	0.707802
0.723176	0.101947	1.05799
0.725457	0.0907137	0.885737
0.727750	0.241740	8.00597
0.730056	0.255356	4.72930
0.732374	0.250992	13.1089
0.734707	0.274013	4.67193
0.737053	0.362667	10.3256
0.739413	0.202141	6.15804
0.741787	0.363156	5.91541
0.744177	0.233612	4.07990
0.746581	0.387074	4.33082
0.749002	0.359225	14.5856
0.751437	0.407408	5.05647
0.753889	0.446265	28.0041
0.756357	0.307416	7.90513
0.758842	0.279937	3.76290
0.761343	0.210063	4.69460
0.763862	0.116136	2.14412
0.766398	0.167129	3.01263
0.768951	0.144590	16.1874
0.771522	0.123224	2.44536
0.774111	0.0408990	1.62976
0.776717	0.192542	3.67276
0.779342	0.232922	3.84025
0.781986	0.210882	9.67060
0.784648	0.244852	4.65618
0.787328	0.299334	6.46473
0.790028	0.204936	3.82756
0.792746	0.273319	10.4238
0.795483	0.227685	3.32054
0.798240	0.353020	6.61409
0.801015	0.356821	6.45058
0.803810	0.396578	6.64293
0.806625	0.445757	18.6974
0.809459	0.530359	18.7113
0.812312	0.668744	47.8927
0.815185	0.628111	14.2867
0.818078	0.613216	14.3360
0.820990	0.567164	12.4174
0.823922	0.699764	28.2517
0.826873	0.707883	59.3210
0.829844	0.647350	41.2798
0.832835	0.614298	43.2538
0.835846	0.611606	15.5873
0.838876	0.576512	21.2988
0.841927	0.556343	20.5272
0.844996	0.454351	12.4484
0.848086	0.473157	18.1971
0.851195	0.374779	11.5575
0.854323	0.458615	69.9795
0.857471	0.467620	35.3498
0.860639	0.526105	48.6072
0.863826	0.515933	32.2495
0.867032	0.553825	92.1227
0.870258	0.612182	42.3196
0.873503	0.622919	20.3507
0.876767	0.680312	24.4203
0.880050	0.736648	46.9846
0.883351	0.700934	36.4526
0.886672	0.696465	20.1177
0.890012	0.645376	27.3661
0.893370	0.726561	21.9270
0.896746	0.784820	51.8804
0.900142	0.769974	103.615
0.903555	0.851777	28.9406
0.906987	0.845342	34.7885
0.910436	0.956566	69.5139
0.913904	0.974244	40.8476
0.917389	0.967317	54.7070
0.920892	0.969284	35.6089
0.924413	0.925562	52.8448
0.927951	0.901385	75.6710
0.931506	0.822147	161.462
0.935078	0.896023	39.3386
0.938667	0.884545	35.5924
0.942273	0.897891	85.5179
0.945895	0.950466	40.7091
0.949534	0.985074	33.7701
0.953189	0.996546	144.670
0.956860	1.01354	35.7609
0.960547	0.983165	48.5322
0.964250	1.02262	32.5299
0.967969	1.00775	60.1659
0.971702	0.947829	137.855
0.975451	0.974963	134.280
0.979216	1.02544	41.7888
0.982994	0.992927	45.0382
0.986788	0.996502	43.6823
0.990596	0.943666	37.9154
0.994418	0.903876	58.5460
0.998255	0.947603	68.1598
1.00210	0.930174	33.4140
1.00597	0.970165	43.0114
1.00985	0.931803	28.3339
1.01374	0.970030	52.2384
1.01764	0.973570	76.1518
1.02156	0.982183	79.7055
1.02549	1.00416	37.8464
1.02943	0.977336	47.7517
1.03338	1.01208	42.3796
1.03735	1.06302	103.998
1.04133	1.05637	69.8147
1.04532	1.02026	54.3599
1.04932	1.03965	42.8074
1.05333	1.01337	94.0775
1.05735	1.03560	62.8165
1.06139	1.04905	125.219
1.06543	1.05201	66.8424
1.06949	1.07344	131.173
1.07355	1.11085	66.8907
1.07763	1.11425	52.7047
1.08171	1.13921	173.341
1.08581	1.13999	86.8568
1.08991	1.13129	55.2309
1.09403	1.10316	81.7910
1.09815	1.08790	47.3145
1.10228	1.08128	88.6168
1.10642	1.04254	79.4945
1.11057	1.03990	159.610
1.11472	1.04120	100.959
1.11889	1.03049	130.415
1.12306	1.04948	148.386
1.12724	1.01340	111.045
1.13143	0.970423	78.1579
1.13562	0.919869	83.4127
1.13982	0.915514	59.5339
1.14403	0.953311	59.9866
1.14824	0.970838	49.1584
1.15246	1.00388	43.5254
1.15668	1.02418	41.6082
1.16092	1.01980	114.641
1.16515	0.971299	82.7311
1.16940	0.936237	73.1461
1.17364	0.926578	86.7443
1.17790	0.953174	152.273
1.18215	0.968934	63.0985
1.18642	0.965330	238.886
1.19068	0.943710	81.8985
1.19495	0.961302	61.8152
1.19923	0.964419	175.501
1.20351	0.915060	46.5500
1.20779	0.940112	150.413
1.21208	0.975237	152.600
1.21637	0.959869	61.0282
1.22066	0.992086	60.7016
1.22495	0.995991	49.1021
1.22925	0.973538	78.2397
1.23355	0.953568	96.3109
1.23785	0.944950	53.0719
1.24216	0.937666	49.3201
1.24647	0.930014	102.106
1.25078	0.921952	194.907
1.25509	0.959084	52.6459
1.25940	0.962525	63.4829
1.26371	0.973639	76.3766
1.26803	0.966089	60.1281
1.27234	0.960913	77.7831
1.27666	1.00000	89.5206
1.28098	0.944036	71.4795
1.28529	0.955351	94.0773
1.28961	0.974527	66.2242
1.29393	0.972506	98.0361
1.29825	0.972236	62.5422
1.30257	0.972727	50.7207
1.30688	0.919805	124.536
1.31120	0.949462	213.521
1.31552	0.921985	309.453
1.31983	0.929719	257.580
1.32415	0.922571	112.873
1.32846	0.830065	95.9633
1.33277	0.773533	116.260
1.33709	0.708987	32.1876
1.34140	0.676386	35.1435
1.34570	0.659285	143.367
1.35001	0.637294	22.1915
1.35432	0.629375	25.0226
1.35862	0.597326	44.9769
1.36292	0.651125	19.1637
1.36722	0.582385	30.3123
1.37151	0.622894	76.5755
1.37581	0.593330	52.4436
1.38010	0.571121	73.5069
1.38438	0.567294	28.7790
1.38867	0.554960	37.0993
1.39295	0.558886	27.9825
1.39723	0.536047	41.7345
1.40151	0.492042	34.1521
1.40578	0.504057	81.1829
1.41005	0.516560	21.8776
1.41431	0.543887	19.9766
1.41857	0.512336	17.8435
1.42283	0.514128	27.9002
1.42709	0.517367	57.4728
1.43134	0.501126	26.5739
1.43558	0.486956	47.1240
1.43982	0.483622	34.6156
1.44406	0.517855	73.2991
1.44830	0.525613	54.5262
1.45252	0.528475	50.7979
1.45675	0.528736	42.1651
1.46097	0.526152	21.8627
1.46518	0.512682	24.1191
1.46939	0.512976	241.530
1.47360	0.502072	74.6179
1.47780	0.506605	25.3747
1.48200	0.496920	32.1010
1.48619	0.523757	69.7324
1.49037	0.497908	45.7289
1.49455	0.529970	29.7443
1.49873	0.487251	44.1888
1.50290	0.522009	58.9414
1.50706	0.504353	27.5095
1.51122	0.482938	24.7045
1.51538	0.524580	74.0427
1.51952	0.528181	39.3063
1.52367	0.537569	31.1499
1.52780	0.523744	69.3665
1.53193	0.523231	68.5811
1.53606	0.527387	147.231
1.54018	0.522254	42.1266
1.54429	0.539176	42.3526
1.54840	0.525018	37.8847
1.55250	0.543522	33.7299
1.55660	0.560402	30.0253
1.56068	0.567506	41.4726
1.56477	0.582580	40.2259
1.56885	0.550216	55.5653
1.57292	0.560625	35.1690
1.57698	0.585696	131.381
1.58104	0.552604	46.9918
1.58509	0.548612	31.1393
1.58914	0.569978	31.5253
1.59318	0.544887	29.7694
1.59721	0.582278	98.4727
1.60124	0.583046	28.9097
1.60526	0.541053	52.1223
1.60927	0.556031	35.4857
1.61328	0.556420	42.0670
1.61728	0.594764	22.4916
1.62128	0.552749	91.2126
1.62527	0.575460	51.3194
1.62925	0.594450	178.164
1.63322	0.584503	45.1520
1.63719	0.546149	75.9732
1.64116	0.554601	64.2583
1.64511	0.569961	80.5258
1.64906	0.584153	48.4191
1.65300	0.590396	41.5317
1.65694	0.591572	101.935
1.66087	0.576870	69.3179
1.66479	0.558032	65.7423
1.66871	0.576928	32.5899
1.67262	0.582183	59.8131
1.67652	0.584903	61.8255
1.68042	0.586761	77.8814
1.68431	0.568357	180.188
1.68819	0.558682	256.304
1.69207	0.602706	47.1078
1.69594	0.541481	41.1629
1.69981	0.566473	53.4908
1.70366	0.547902	22.4056
1.70751	0.497390	29.8271
1.71136	0.519096	29.1383
1.71520	0.500071	31.3638
1.71903	0.507835	22.9085
1.72285	0.501045	50.0989
1.72667	0.503254	39.8079
1.73048	0.496257	65.7948
1.73429	0.481177	36.4924
1.73809	0.464465	62.3221
1.74188	0.479548	55.9360
1.74567	0.456569	107.252
1.74945	0.436167	21.7109
1.75322	0.450832	55.2880
1.75699	0.425736	33.3862
1.76075	0.407232	19.0045
1.76451	0.377418	22.8464
1.76825	0.395369	8.23851
1.77200	0.400617	25.9646
1.77573	0.401097	96.8276
1.77946	0.391343	77.0755
1.78319	0.384745	48.3773
1.78690	0.376551	15.1578
1.79062	0.360761	25.2501
1.79432	0.376861	16.0686
1.79802	0.368611	20.6959
1.80171	0.334100	44.9032
1.80540	0.338801	17.6503
1.80908	0.343893	13.0773
1.81276	0.333076	37.7790
1.81643	0.321293	21.6872
1.82009	0.321542	252.012
1.82375	0.375461	20.0973
1.82740	0.319418	13.1796
1.83104	0.306510	16.3852
1.83468	0.277475	9.86813
1.83832	0.335649	30.5123
1.84195	0.314847	14.6856
1.84557	0.285564	8.90396
1.84919	0.277794	9.43658
1.85280	0.309291	20.3634
1.85640	0.284256	13.2107
1.86000	0.283517	20.2122
1.86360	0.312236	21.4580
1.86719	0.320944	59.9288
1.87077	0.266598	22.1203
1.87435	0.303561	7.65509
1.87792	0.277021	5.18272
1.88149	0.283132	21.1051
1.88505	0.269853	38.9454
1.88860	0.275680	22.5348
1.89215	0.288710	31.8651
1.89570	0.269323	13.4905
1.89924	0.259760	46.4747
1.90277	0.283312	32.3180
1.90630	0.313433	19.3955
1.90983	0.285917	18.6951
1.91335	0.288709	17.7517
1.91686	0.290776	18.1326
1.92037	0.295585	20.9362
1.92387	0.276815	21.7425
1.92737	0.290042	10.7413
1.93086	0.285212	40.1426
1.93435	0.279567	48.2161
1.93783	0.292588	43.8574
1.94131	0.280274	52.1214
1.94478	0.287644	31.0832
1.94825	0.265740	27.5514
1.95172	0.297774	26.8449
1.95517	0.270288	20.0761
1.95863	0.264604	26.7550
1.96208	0.272711	26.6697
1.96552	0.278370	42.4342
1.96896	0.293888	41.1417
1.97239	0.246336	17.1400
1.97582	0.258641	31.2128
1.97925	0.232931	23.0997
1.98267	0.258929	41.4158
1.98608	0.252951	54.1572
1.98949	0.259241	59.2573
1.99290	0.266081	43.9011
1.99630	0.252703	20.4155
1.99969	0.290967	27.5096
2.00308	0.268118	21.6994
2.00647	0.213643	43.4963
2.00985	0.257140	57.8670
2.01323	0.252027	12.6411
2.01660	0.260397	42.3624
2.01997	0.251835	73.9533
2.02334	0.243401	8.97161
2.02669	0.243317	40.4727
2.03005	0.240292	14.4029
2.03340	0.259306	27.5426
2.03674	0.258273	36.2765
2.04009	0.269419	45.1072
2.04342	0.236461	28.4872
2.04675	0.253606	16.4386
2.05008	0.254152	65.0503
2.05340	0.260575	16.9719
2.05672	0.280118	65.2790
2.06003	0.245028	22.8463
2.06334	0.251129	76.4829
2.06665	0.264624	88.1230
2.06995	0.234888	29.9240
2.07324	0.231010	25.4919
2.07653	0.256557	44.6978
2.07982	0.254654	41.0453
2.08310	0.256623	41.8927
2.08638	0.262265	94.6613
2.08965	0.265279	54.2379
2.09292	0.262706	29.9606
2.09619	0.271965	71.4723
2.09945	0.261474	55.1951
2.10270	0.247786	50.8013
2.10595	0.265818	27.8077
2.10920	0.267047	160.854
2.11244	0.254262	50.7477
2.11567	0.251618	50.0902
2.11891	0.263263	35.4555
2.12213	0.268627	27.1462
2.12536	0.267763	35.8156
2.12857	0.279895	59.2767
2.13179	0.267037	33.1345
2.13500	0.281865	25.9681
2.13820	0.267961	30.7584
2.14140	0.273191	36.5900
2.14460	0.270940	70.6362
2.14779	0.273730	74.6318
2.15097	0.266467	22.2752
2.15415	0.284086	20.2907
2.15733	0.255548	17.1111
2.16050	0.253476	52.7708
2.16367	0.272678	29.3267
2.16683	0.272712	46.5189
2.16999	0.263335	30.7567
2.17314	0.269501	223.128
2.17629	0.267537	36.7701
2.17943	0.284126	113.607
2.18257	0.274882	55.4851
2.18570	0.264539	25.0351
2.18883	0.264426	71.4404
2.19196	0.268404	89.7713
2.19508	0.276423	14.4504
2.19819	0.261605	23.5617
2.20130	0.292355	55.7833
2.20440	0.286142	38.1658
2.20750	0.284887	55.8441
2.21060	0.278312	33.9447
2.21369	0.285946	60.9521
2.21677	0.276648	27.4788
2.21985	0.267682	20.9184
2.22292	0.276704	24.0619
2.22599	0.268882	28.3455
2.22906	0.281374	162.724
2.23212	0.267097	257.842
2.23517	0.268404	27.7843
2.23822	0.263219	32.7042
2.24126	0.257855	21.9977
2.24430	0.280144	89.2423
2.24734	0.263812	47.8524
2.25036	0.261864	182.134
2.25339	0.266213	111.083
2.25641	0.261117	20.9277
2.25942	0.263501	37.5816
2.26243	0.261541	37.7267
2.26543	0.251560	27.3998
2.26843	0.241117	63.6294
2.27142	0.253279	27.3989
2.27441	0.264773	37.3148
2.27739	0.273449	23.3631
2.28036	0.265605	95.2652
2.28334	0.255893	69.6553
2.28630	0.267391	58.2492
2.28926	0.260918	71.3971
2.29222	0.239245	13.5501
2.29517	0.246047	97.1243
2.29812	0.239464	74.9652
2.30106	0.227130	41.3673
2.30399	0.241058	38.6951
2.30692	0.245298	38.1847
2.30985	0.228564	37.9644
2.31277	0.242056	36.3559
2.31568	0.235245	111.403
2.31859	0.242625	40.0657
2.32150	0.222171	43.2663
2.32440	0.229228	56.0838
2.32729	0.215819	27.5135
2.33018	0.217900	22.8590
2.33306	0.240421	53.8055
2.33594	0.221162	40.1101
2.33882	0.219427	35.6351
2.34169	0.223220	94.2475
2.34455	0.213894	33.1412
2.34741	0.211354	18.7571
2.35027	0.207940	35.8817
2.35312	0.208292	25.3961
2.35597	0.199997	51.3326
2.35881	0.186422	8.48868
2.36164	0.205954	32.9388
2.36448	0.199044	37.6110
2.36730	0.185968	25.9219
2.37013	0.203741	34.4735
2.37295	0.204265	14.1883
2.37576	0.217206	23.2593
2.37857	0.209125	10.3653
2.38138	0.213311	24.8675
2.38418	0.206273	17.4735
2.38698	0.185403	31.4904
2.38978	0.202057	103.306
2.39257	0.189740	61.8525
2.39536	0.179363	23.5947
2.39814	0.204211	44.5542
2.40092	0.205866	19.1696
2.40370	0.193993	66.0101
2.40647	0.193663	17.8313
2.40925	0.166314	14.1651
2.41201	0.178644	19.3555
2.41478	0.167857	15.1195
2.41754	0.160086	13.1684
2.42030	0.202002	15.5246
2.42306	0.158321	24.4864
2.42582	0.166639	20.4316
2.42857	0.160566	13.2148
2.43132	0.176275	12.1577
2.43408	0.181373	11.5041
2.43682	0.180755	23.2780
2.43957	0.151850	27.3857
2.44232	0.149919	18.4989
2.44506	0.162278	10.0877
2.44781	0.142181	8.78188
2.45055	0.146206	7.39493
2.45330	0.147384	8.20398
2.45604	0.118553	7.78651
2.45878	0.157252	10.6872
2.46153	0.143981	17.9739
2.46427	0.139146	20.9026
2.46702	0.104986	6.58687
2.46976	0.145787	16.4536
2.47251	0.150932	20.3708
2.47526	0.153813	12.4475
2.47801	0.182204	9.35685
2.48077	0.162549	14.3774
2.48352	0.104633	2.56452
2.48628	0.134290	4.38674
2.48904	0.156251	4.67946
2.49181	0.139314	5.76149
2.49458	0.118902	3.95548
2.49735	0.112101	15.5170
2.50013	0.124231	3.54071
2.50291	0.130516	4.96142
2.50570	0.148945	4.49897
2.50849	0.113285	4.51222
2.51129	0.120236	3.53515
2.51409	0.0941483	3.04441
2.51690	0.120350	2.69062
2.51972	0.110866	2.57765
2.52255	0.0566711	1.09211
2.52538	0.191691	3.26772
2.52823	0.0867406	1.29554
2.53108	0.131205	4.98575
2.53394	0.0248584	0.303494
2.53681	0.251318	4.20140
2.53969	0.0757871	1.06960
2.54258	-0.0162238	0.00000
2.54548	0.0675277	0.686541
2.54840	0.247646	1.56123
2.55133	0.255018	0.832522
2.55427	0.492400	4.76892
2.55722	0.270889	2.66210
2.56019	0.217242	2.58211
